r/R     c/R        theta

0.2     0.124       42
0.25    0.127       38
0.3     0.13        34
0.35    0.133       30.2
0.4     0.136       28.1
0.45    0.139       25.3
0.5     0.142       23.7
0.55    0.141       22.2
0.6     0.14        20.35
0.65    0.134       18.95
0.7     0.128       17.95
0.75    0.119       17.15
0.8     0.11        16.3
0.85    0.1         15.35
0.9     0.09        14.35
0.95    0.06        13.75
1       0.001       12.4